Sept. 5, 2019   15:23:37
Cyclic Voltammetry
File: c:\users\1\desktop\2019Data Source:  Experiment
Instrument Model:  CHI630E
Header: 
Note: 

Init E (V) = 0.6
High E (V) = 0.6
Low E (V) = -0.2
Init P/N = N
Scan Rate (V/s) = 0.02
Segment = 2
Sample Interval (V) = 0.002
Quiet Time (sec) = 2
Sensitivity (A/V) = 1e-5

Segment 1:
Ep = 0.193V
ip = 2.811e-5A
Ah = 9.981e-5C

Segment 2:
Ep = 0.279V
ip = -2.860e-5A
Ah = -1.016e-4C

Potential/V, Current/A

0.599, -7.033e-7
0.597, -6.532e-7
0.595, -6.230e-7
0.593, -5.972e-7
0.591, -5.745e-7
0.589, -5.543e-7
0.587, -5.340e-7
0.585, -5.155e-7
0.583, -4.981e-7
0.581, -4.816e-7
0.579, -4.657e-7
0.577, -4.505e-7
0.575, -4.367e-7
0.573, -4.228e-7
0.571, -4.092e-7
0.569, -3.966e-7
0.567, -3.846e-7
0.565, -3.741e-7
0.563, -3.631e-7
0.561, -3.518e-7
0.559, -3.410e-7
0.557, -3.305e-7
0.555, -3.205e-7
0.553, -3.106e-7
0.551, -3.012e-7
0.549, -2.924e-7
0.547, -2.831e-7
0.545, -2.740e-7
0.543, -2.654e-7
0.541, -2.572e-7
0.539, -2.488e-7
0.537, -2.411e-7
0.535, -2.332e-7
0.533, -2.257e-7
0.531, -2.180e-7
0.529, -2.105e-7
0.527, -2.035e-7
0.525, -1.967e-7
0.523, -1.896e-7
0.521, -1.828e-7
0.519, -1.763e-7
0.517, -1.702e-7
0.515, -1.637e-7
0.513, -1.573e-7
0.511, -1.516e-7
0.509, -1.454e-7
0.507, -1.391e-7
0.505, -1.333e-7
0.503, -1.275e-7
0.501, -1.218e-7
0.499, -1.162e-7
0.497, -1.104e-7
0.495, -1.050e-7
0.493, -9.945e-8
0.491, -9.396e-8
0.489, -8.865e-8
0.487, -8.343e-8
0.485, -7.862e-8
0.483, -7.303e-8
0.481, -6.758e-8
0.479, -6.281e-8
0.477, -5.776e-8
0.475, -5.236e-8
0.473, -4.768e-8
0.471, -4.238e-8
0.469, -3.763e-8
0.467, -3.258e-8
0.465, -2.754e-8
0.463, -2.271e-8
0.461, -1.787e-8
0.459, -1.268e-8
0.457, -7.642e-9
0.455, -2.553e-9
0.453, 2.411e-9
0.451, 7.595e-9
0.449, 1.294e-8
0.447, 1.768e-8
0.445, 2.347e-8
0.443, 2.946e-8
0.441, 3.492e-8
0.439, 4.057e-8
0.437, 4.639e-8
0.435, 5.204e-8
0.433, 5.817e-8
0.431, 6.426e-8
0.429, 7.064e-8
0.427, 7.734e-8
0.425, 8.414e-8
0.423, 9.096e-8
0.421, 9.802e-8
0.419, 1.057e-7
0.417, 1.134e-7
0.415, 1.214e-7
0.413, 1.300e-7
0.411, 1.392e-7
0.409, 1.483e-7
0.407, 1.581e-7
0.405, 1.682e-7
0.403, 1.792e-7
0.401, 1.909e-7
0.399, 2.029e-7
0.397, 2.151e-7
0.395, 2.283e-7
0.393, 2.428e-7
0.391, 2.579e-7
0.389, 2.741e-7
0.387, 2.915e-7
0.385, 3.097e-7
0.383, 3.282e-7
0.381, 3.492e-7
0.379, 3.716e-7
0.377, 3.949e-7
0.375, 4.199e-7
0.373, 4.469e-7
0.371, 4.750e-7
0.369, 5.059e-7
0.367, 5.384e-7
0.365, 5.731e-7
0.363, 6.108e-7
0.361, 6.502e-7
0.359, 6.931e-7
0.357, 7.379e-7
0.355, 7.870e-7
0.353, 8.405e-7
0.351, 8.967e-7
0.349, 9.561e-7
0.347, 1.021e-6
0.345, 1.088e-6
0.343, 1.162e-6
0.341, 1.238e-6
0.339, 1.323e-6
0.337, 1.413e-6
0.335, 1.509e-6
0.333, 1.611e-6
0.331, 1.720e-6
0.329, 1.838e-6
0.327, 1.964e-6
0.325, 2.096e-6
0.323, 2.239e-6
0.321, 2.392e-6
0.319, 2.550e-6
0.317, 2.722e-6
0.315, 2.906e-6
0.313, 3.101e-6
0.311, 3.309e-6
0.309, 3.527e-6
0.307, 3.762e-6
0.305, 4.010e-6
0.303, 4.271e-6
0.301, 4.545e-6
0.299, 4.839e-6
0.297, 5.148e-6
0.295, 5.474e-6
0.293, 5.810e-6
0.291, 6.171e-6
0.289, 6.554e-6
0.287, 6.951e-6
0.285, 7.365e-6
0.283, 7.800e-6
0.281, 8.247e-6
0.279, 8.719e-6
0.277, 9.208e-6
0.275, 9.719e-6
0.273, 1.025e-5
0.271, 1.079e-5
0.269, 1.135e-5
0.267, 1.192e-5
0.265, 1.252e-5
0.263, 1.313e-5
0.261, 1.375e-5
0.259, 1.438e-5
0.257, 1.502e-5
0.255, 1.566e-5
0.253, 1.632e-5
0.251, 1.698e-5
0.249, 1.764e-5
0.247, 1.830e-5
0.245, 1.896e-5
0.243, 1.960e-5
0.241, 2.025e-5
0.239, 2.088e-5
0.237, 2.151e-5
0.235, 2.212e-5
0.233, 2.272e-5
0.231, 2.330e-5
0.229, 2.383e-5
0.227, 2.436e-5
0.225, 2.487e-5
0.223, 2.535e-5
0.221, 2.580e-5
0.219, 2.623e-5
0.217, 2.661e-5
0.215, 2.697e-5
0.213, 2.730e-5
0.211, 2.760e-5
0.209, 2.786e-5
0.207, 2.809e-5
0.205, 2.829e-5
0.203, 2.845e-5
0.201, 2.859e-5
0.199, 2.870e-5
0.197, 2.878e-5
0.195, 2.883e-5
0.193, 2.886e-5
0.191, 2.885e-5
0.189, 2.882e-5
0.187, 2.878e-5
0.185, 2.871e-5
0.183, 2.862e-5
0.181, 2.852e-5
0.179, 2.839e-5
0.177, 2.825e-5
0.175, 2.810e-5
0.173, 2.794e-5
0.171, 2.777e-5
0.169, 2.758e-5
0.167, 2.739e-5
0.165, 2.718e-5
0.163, 2.698e-5
0.161, 2.677e-5
0.159, 2.656e-5
0.157, 2.634e-5
0.155, 2.612e-5
0.153, 2.589e-5
0.151, 2.567e-5
0.149, 2.544e-5
0.147, 2.522e-5
0.145, 2.499e-5
0.143, 2.477e-5
0.141, 2.455e-5
0.139, 2.433e-5
0.137, 2.411e-5
0.135, 2.389e-5
0.133, 2.368e-5
0.131, 2.347e-5
0.129, 2.326e-5
0.127, 2.306e-5
0.125, 2.286e-5
0.123, 2.266e-5
0.121, 2.246e-5
0.119, 2.227e-5
0.117, 2.208e-5
0.115, 2.190e-5
0.113, 2.172e-5
0.111, 2.154e-5
0.109, 2.136e-5
0.107, 2.119e-5
0.105, 2.103e-5
0.103, 2.086e-5
0.101, 2.070e-5
0.099, 2.054e-5
0.097, 2.039e-5
0.095, 2.023e-5
0.093, 2.009e-5
0.091, 1.994e-5
0.089, 1.980e-5
0.087, 1.966e-5
0.085, 1.952e-5
0.083, 1.939e-5
0.081, 1.926e-5
0.079, 1.913e-5
0.077, 1.900e-5
0.075, 1.888e-5
0.073, 1.876e-5
0.071, 1.864e-5
0.069, 1.852e-5
0.067, 1.841e-5
0.065, 1.830e-5
0.063, 1.819e-5
0.061, 1.808e-5
0.059, 1.797e-5
0.057, 1.787e-5
0.055, 1.777e-5
0.053, 1.767e-5
0.051, 1.757e-5
0.049, 1.748e-5
0.047, 1.738e-5
0.045, 1.729e-5
0.043, 1.720e-5
0.041, 1.711e-5
0.039, 1.702e-5
0.037, 1.694e-5
0.035, 1.685e-5
0.033, 1.677e-5
0.031, 1.669e-5
0.029, 1.661e-5
0.027, 1.653e-5
0.025, 1.645e-5
0.023, 1.638e-5
0.021, 1.630e-5
0.019, 1.623e-5
0.017, 1.616e-5
0.015, 1.609e-5
0.013, 1.602e-5
0.011, 1.595e-5
0.009, 1.588e-5
0.007, 1.582e-5
0.005, 1.575e-5
0.003, 1.568e-5
0.001, 1.562e-5
-0.001, 1.556e-5
-0.003, 1.550e-5
-0.005, 1.544e-5
-0.007, 1.538e-5
-0.009, 1.532e-5
-0.011, 1.526e-5
-0.013, 1.520e-5
-0.015, 1.515e-5
-0.017, 1.509e-5
-0.019, 1.504e-5
-0.021, 1.498e-5
-0.023, 1.493e-5
-0.025, 1.488e-5
-0.027, 1.483e-5
-0.029, 1.478e-5
-0.031, 1.473e-5
-0.033, 1.468e-5
-0.035, 1.463e-5
-0.037, 1.458e-5
-0.039, 1.453e-5
-0.041, 1.449e-5
-0.043, 1.444e-5
-0.045, 1.439e-5
-0.047, 1.435e-5
-0.049, 1.430e-5
-0.051, 1.426e-5
-0.053, 1.422e-5
-0.055, 1.417e-5
-0.057, 1.413e-5
-0.059, 1.409e-5
-0.061, 1.405e-5
-0.063, 1.401e-5
-0.065, 1.397e-5
-0.067, 1.393e-5
-0.069, 1.389e-5
-0.071, 1.385e-5
-0.073, 1.381e-5
-0.075, 1.378e-5
-0.077, 1.374e-5
-0.079, 1.371e-5
-0.081, 1.367e-5
-0.083, 1.363e-5
-0.085, 1.360e-5
-0.087, 1.356e-5
-0.089, 1.353e-5
-0.091, 1.350e-5
-0.093, 1.346e-5
-0.095, 1.343e-5
-0.097, 1.340e-5
-0.099, 1.337e-5
-0.101, 1.333e-5
-0.103, 1.330e-5
-0.105, 1.327e-5
-0.107, 1.324e-5
-0.109, 1.321e-5
-0.111, 1.318e-5
-0.113, 1.315e-5
-0.115, 1.313e-5
-0.117, 1.310e-5
-0.119, 1.307e-5
-0.121, 1.304e-5
-0.123, 1.301e-5
-0.125, 1.299e-5
-0.127, 1.296e-5
-0.129, 1.294e-5
-0.131, 1.291e-5
-0.133, 1.289e-5
-0.135, 1.286e-5
-0.137, 1.284e-5
-0.139, 1.281e-5
-0.141, 1.279e-5
-0.143, 1.277e-5
-0.145, 1.275e-5
-0.147, 1.272e-5
-0.149, 1.270e-5
-0.151, 1.268e-5
-0.153, 1.266e-5
-0.155, 1.264e-5
-0.157, 1.262e-5
-0.159, 1.260e-5
-0.161, 1.258e-5
-0.163, 1.257e-5
-0.165, 1.255e-5
-0.167, 1.253e-5
-0.169, 1.252e-5
-0.171, 1.250e-5
-0.173, 1.250e-5
-0.175, 1.250e-5
-0.177, 1.249e-5
-0.179, 1.248e-5
-0.181, 1.247e-5
-0.183, 1.246e-5
-0.185, 1.245e-5
-0.187, 1.244e-5
-0.189, 1.243e-5
-0.191, 1.243e-5
-0.193, 1.242e-5
-0.195, 1.242e-5
-0.197, 1.242e-5
-0.199, 1.241e-5
-0.199, 1.225e-5
-0.197, 1.209e-5
-0.195, 1.200e-5
-0.193, 1.192e-5
-0.191, 1.186e-5
-0.189, 1.179e-5
-0.187, 1.173e-5
-0.185, 1.168e-5
-0.183, 1.163e-5
-0.181, 1.158e-5
-0.179, 1.153e-5
-0.177, 1.148e-5
-0.175, 1.143e-5
-0.173, 1.139e-5
-0.171, 1.135e-5
-0.169, 1.130e-5
-0.167, 1.126e-5
-0.165, 1.123e-5
-0.163, 1.119e-5
-0.161, 1.115e-5
-0.159, 1.111e-5
-0.157, 1.108e-5
-0.155, 1.104e-5
-0.153, 1.101e-5
-0.151, 1.098e-5
-0.149, 1.094e-5
-0.147, 1.091e-5
-0.145, 1.088e-5
-0.143, 1.085e-5
-0.141, 1.082e-5
-0.139, 1.079e-5
-0.137, 1.076e-5
-0.135, 1.073e-5
-0.133, 1.070e-5
-0.131, 1.067e-5
-0.129, 1.064e-5
-0.127, 1.062e-5
-0.125, 1.059e-5
-0.123, 1.056e-5
-0.121, 1.054e-5
-0.119, 1.051e-5
-0.117, 1.048e-5
-0.115, 1.046e-5
-0.113, 1.043e-5
-0.111, 1.041e-5
-0.109, 1.038e-5
-0.107, 1.036e-5
-0.105, 1.033e-5
-0.103, 1.031e-5
-0.101, 1.028e-5
-0.099, 1.026e-5
-0.097, 1.024e-5
-0.095, 1.021e-5
-0.093, 1.019e-5
-0.091, 1.017e-5
-0.089, 1.014e-5
-0.087, 1.012e-5
-0.085, 1.010e-5
-0.083, 1.008e-5
-0.081, 1.005e-5
-0.079, 1.003e-5
-0.077, 1.001e-5
-0.075, 9.989e-6
-0.073, 9.967e-6
-0.071, 9.946e-6
-0.069, 9.925e-6
-0.067, 9.904e-6
-0.065, 9.882e-6
-0.063, 9.862e-6
-0.061, 9.841e-6
-0.059, 9.820e-6
-0.057, 9.800e-6
-0.055, 9.780e-6
-0.053, 9.759e-6
-0.051, 9.740e-6
-0.049, 9.719e-6
-0.047, 9.699e-6
-0.045, 9.680e-6
-0.043, 9.660e-6
-0.041, 9.641e-6
-0.039, 9.622e-6
-0.037, 9.602e-6
-0.035, 9.582e-6
-0.033, 9.563e-6
-0.031, 9.545e-6
-0.029, 9.525e-6
-0.027, 9.507e-6
-0.025, 9.488e-6
-0.023, 9.469e-6
-0.021, 9.450e-6
-0.019, 9.431e-6
-0.017, 9.412e-6
-0.015, 9.395e-6
-0.013, 9.376e-6
-0.011, 9.357e-6
-0.009, 9.339e-6
-0.007, 9.321e-6
-0.005, 9.302e-6
-0.003, 9.284e-6
-0.001, 9.266e-6
0.001, 9.248e-6
0.003, 9.230e-6
0.005, 9.211e-6
0.007, 9.193e-6
0.009, 9.174e-6
0.011, 9.156e-6
0.013, 9.138e-6
0.015, 9.119e-6
0.017, 9.101e-6
0.019, 9.083e-6
0.021, 9.065e-6
0.023, 9.046e-6
0.025, 9.028e-6
0.027, 9.009e-6
0.029, 8.990e-6
0.031, 8.970e-6
0.033, 8.952e-6
0.035, 8.932e-6
0.037, 8.913e-6
0.039, 8.893e-6
0.041, 8.874e-6
0.043, 8.854e-6
0.045, 8.833e-6
0.047, 8.812e-6
0.049, 8.792e-6
0.051, 8.771e-6
0.053, 8.749e-6
0.055, 8.727e-6
0.057, 8.705e-6
0.059, 8.681e-6
0.061, 8.658e-6
0.063, 8.635e-6
0.065, 8.612e-6
0.067, 8.586e-6
0.069, 8.561e-6
0.071, 8.535e-6
0.073, 8.509e-6
0.075, 8.482e-6
0.077, 8.455e-6
0.079, 8.425e-6
0.081, 8.396e-6
0.083, 8.365e-6
0.085, 8.333e-6
0.087, 8.300e-6
0.089, 8.266e-6
0.091, 8.231e-6
0.093, 8.193e-6
0.095, 8.155e-6
0.097, 8.115e-6
0.099, 8.074e-6
0.101, 8.030e-6
0.103, 7.985e-6
0.105, 7.937e-6
0.107, 7.887e-6
0.109, 7.834e-6
0.111, 7.779e-6
0.113, 7.722e-6
0.115, 7.662e-6
0.117, 7.598e-6
0.119, 7.530e-6
0.121, 7.461e-6
0.123, 7.386e-6
0.125, 7.307e-6
0.127, 7.223e-6
0.129, 7.137e-6
0.131, 7.041e-6
0.133, 6.943e-6
0.135, 6.838e-6
0.137, 6.728e-6
0.139, 6.610e-6
0.141, 6.488e-6
0.143, 6.356e-6
0.145, 6.216e-6
0.147, 6.069e-6
0.149, 5.913e-6
0.151, 5.747e-6
0.153, 5.573e-6
0.155, 5.387e-6
0.157, 5.188e-6
0.159, 4.978e-6
0.161, 4.758e-6
0.163, 4.523e-6
0.165, 4.277e-6
0.167, 4.020e-6
0.169, 3.742e-6
0.171, 3.450e-6
0.173, 3.143e-6
0.175, 2.818e-6
0.177, 2.481e-6
0.179, 2.127e-6
0.181, 1.754e-6
0.183, 1.359e-6
0.185, 9.480e-7
0.187, 5.175e-7
0.189, 6.726e-8
0.191, -4.039e-7
0.193, -8.785e-7
0.195, -1.392e-6
0.197, -1.921e-6
0.199, -2.466e-6
0.201, -3.029e-6
0.203, -3.608e-6
0.205, -4.203e-6
0.207, -4.820e-6
0.209, -5.448e-6
0.211, -6.093e-6
0.213, -6.751e-6
0.215, -7.418e-6
0.217, -8.089e-6
0.219, -8.759e-6
0.221, -9.455e-6
0.223, -1.015e-5
0.225, -1.084e-5
0.227, -1.153e-5
0.229, -1.221e-5
0.231, -1.288e-5
0.233, -1.356e-5
0.235, -1.422e-5
0.237, -1.486e-5
0.239, -1.549e-5
0.241, -1.610e-5
0.243, -1.668e-5
0.245, -1.724e-5
0.247, -1.778e-5
0.249, -1.829e-5
0.251, -1.877e-5
0.253, -1.922e-5
0.255, -1.964e-5
0.257, -2.001e-5
0.259, -2.037e-5
0.261, -2.069e-5
0.263, -2.097e-5
0.265, -2.122e-5
0.267, -2.143e-5
0.269, -2.160e-5
0.271, -2.175e-5
0.273, -2.186e-5
0.275, -2.194e-5
0.277, -2.199e-5
0.279, -2.201e-5
0.281, -2.200e-5
0.283, -2.195e-5
0.285, -2.190e-5
0.287, -2.182e-5
0.289, -2.171e-5
0.291, -2.158e-5
0.293, -2.143e-5
0.295, -2.126e-5
0.297, -2.108e-5
0.299, -2.089e-5
0.301, -2.070e-5
0.303, -2.049e-5
0.305, -2.026e-5
0.307, -2.004e-5
0.309, -1.980e-5
0.311, -1.956e-5
0.313, -1.932e-5
0.315, -1.908e-5
0.317, -1.883e-5
0.319, -1.858e-5
0.321, -1.833e-5
0.323, -1.808e-5
0.325, -1.783e-5
0.327, -1.758e-5
0.329, -1.733e-5
0.331, -1.708e-5
0.333, -1.683e-5
0.335, -1.659e-5
0.337, -1.635e-5
0.339, -1.612e-5
0.341, -1.589e-5
0.343, -1.566e-5
0.345, -1.544e-5
0.347, -1.522e-5
0.349, -1.501e-5
0.351, -1.480e-5
0.353, -1.459e-5
0.355, -1.439e-5
0.357, -1.419e-5
0.359, -1.400e-5
0.361, -1.381e-5
0.363, -1.362e-5
0.365, -1.344e-5
0.367, -1.326e-5
0.369, -1.309e-5
0.371, -1.292e-5
0.373, -1.276e-5
0.375, -1.259e-5
0.377, -1.244e-5
0.379, -1.228e-5
0.381, -1.213e-5
0.383, -1.198e-5
0.385, -1.184e-5
0.387, -1.170e-5
0.389, -1.156e-5
0.391, -1.142e-5
0.393, -1.129e-5
0.395, -1.117e-5
0.397, -1.104e-5
0.399, -1.091e-5
0.401, -1.079e-5
0.403, -1.068e-5
0.405, -1.056e-5
0.407, -1.045e-5
0.409, -1.034e-5
0.411, -1.023e-5
0.413, -1.012e-5
0.415, -1.002e-5
0.417, -9.918e-6
0.419, -9.819e-6
0.421, -9.722e-6
0.423, -9.627e-6
0.425, -9.534e-6
0.427, -9.442e-6
0.429, -9.351e-6
0.431, -9.264e-6
0.433, -9.178e-6
0.435, -9.093e-6
0.437, -9.010e-6
0.439, -8.929e-6
0.441, -8.850e-6
0.443, -8.772e-6
0.445, -8.695e-6
0.447, -8.619e-6
0.449, -8.544e-6
0.451, -8.473e-6
0.453, -8.402e-6
0.455, -8.332e-6
0.457, -8.264e-6
0.459, -8.198e-6
0.461, -8.132e-6
0.463, -8.067e-6
0.465, -8.004e-6
0.467, -7.941e-6
0.469, -7.880e-6
0.471, -7.819e-6
0.473, -7.759e-6
0.475, -7.701e-6
0.477, -7.644e-6
0.479, -7.588e-6
0.481, -7.532e-6
0.483, -7.477e-6
0.485, -7.424e-6
0.487, -7.371e-6
0.489, -7.319e-6
0.491, -7.268e-6
0.493, -7.218e-6
0.495, -7.169e-6
0.497, -7.120e-6
0.499, -7.072e-6
0.501, -7.025e-6
0.503, -6.979e-6
0.505, -6.933e-6
0.507, -6.888e-6
0.509, -6.844e-6
0.511, -6.801e-6
0.513, -6.758e-6
0.515, -6.716e-6
0.517, -6.676e-6
0.519, -6.635e-6
0.521, -6.595e-6
0.523, -6.555e-6
0.525, -6.516e-6
0.527, -6.478e-6
0.529, -6.441e-6
0.531, -6.404e-6
0.533, -6.367e-6
0.535, -6.331e-6
0.537, -6.295e-6
0.539, -6.260e-6
0.541, -6.226e-6
0.543, -6.193e-6
0.545, -6.159e-6
0.547, -6.127e-6
0.549, -6.095e-6
0.551, -6.063e-6
0.553, -6.032e-6
0.555, -6.002e-6
0.557, -5.971e-6
0.559, -5.942e-6
0.561, -5.912e-6
0.563, -5.884e-6
0.565, -5.856e-6
0.567, -5.828e-6
0.569, -5.801e-6
0.571, -5.774e-6
0.573, -5.748e-6
0.575, -5.723e-6
0.577, -5.697e-6
0.579, -5.673e-6
0.581, -5.648e-6
0.583, -5.624e-6
0.585, -5.601e-6
0.587, -5.578e-6
0.589, -5.555e-6
0.591, -5.533e-6
0.593, -5.511e-6
0.595, -5.490e-6
0.597, -5.469e-6
0.599, -5.448e-6
