Sept. 5, 2019   16:20:02
Cyclic Voltammetry
File: c:\users\1\desktop\2019Data Source:  Experiment
Instrument Model:  CHI630E
Header: 
Note: 

Init E (V) = -0.2
High E (V) = 1
Low E (V) = -0.2
Init P/N = P
Scan Rate (V/s) = 0.02
Segment = 2
Sample Interval (V) = 0.002
Quiet Time (sec) = 2
Sensitivity (A/V) = 1e-4

Segment 1:
Ep = 0.317V
ip = -2.918e-5A
Ah = -1.444e-4C

Segment 2:

Potential/V, Current/A

-0.199, 8.723e-7
-0.197, 7.974e-7
-0.195, 7.481e-7
-0.193, 7.056e-7
-0.191, 6.689e-7
-0.189, 6.325e-7
-0.187, 6.016e-7
-0.185, 5.720e-7
-0.183, 5.434e-7
-0.181, 5.148e-7
-0.179, 4.891e-7
-0.177, 4.638e-7
-0.175, 4.398e-7
-0.173, 4.174e-7
-0.171, 3.952e-7
-0.169, 3.758e-7
-0.167, 3.556e-7
-0.165, 3.362e-7
-0.163, 3.176e-7
-0.161, 3.003e-7
-0.159, 2.828e-7
-0.157, 2.647e-7
-0.155, 2.474e-7
-0.153, 2.319e-7
-0.151, 2.169e-7
-0.149, 2.004e-7
-0.147, 1.858e-7
-0.145, 1.714e-7
-0.143, 1.588e-7
-0.141, 1.459e-7
-0.139, 1.320e-7
-0.137, 1.204e-7
-0.135, 1.082e-7
-0.133, 9.832e-8
-0.131, 8.713e-8
-0.129, 7.642e-8
-0.127, 6.618e-8
-0.125, 5.436e-8
-0.123, 4.609e-8
-0.121, 3.529e-8
-0.119, 2.600e-8
-0.117, 1.654e-8
-0.115, 8.666e-9
-0.113, -1.261e-9
-0.111, -8.981e-9
-0.109, -1.804e-8
-0.107, -2.537e-8
-0.105, -3.332e-8
-0.103, -4.034e-8
-0.101, -4.924e-8
-0.099, -5.609e-8
-0.097, -6.381e-8
-0.095, -7.138e-8
-0.093, -7.870e-8
-0.091, -8.548e-8
-0.089, -9.076e-8
-0.087, -9.816e-8
-0.085, -1.056e-7
-0.083, -1.116e-7
-0.081, -1.185e-7
-0.079, -1.248e-7
-0.077, -1.295e-7
-0.075, -1.370e-7
-0.073, -1.429e-7
-0.071, -1.475e-7
-0.069, -1.537e-7
-0.067, -1.585e-7
-0.065, -1.642e-7
-0.063, -1.695e-7
-0.061, -1.747e-7
-0.059, -1.810e-7
-0.057, -1.858e-7
-0.055, -1.904e-7
-0.053, -1.955e-7
-0.051, -2.005e-7
-0.049, -2.066e-7
-0.047, -2.113e-7
-0.045, -2.157e-7
-0.043, -2.211e-7
-0.041, -2.253e-7
-0.039, -2.284e-7
-0.037, -2.340e-7
-0.035, -2.386e-7
-0.033, -2.429e-7
-0.031, -2.471e-7
-0.029, -2.508e-7
-0.027, -2.559e-7
-0.025, -2.600e-7
-0.023, -2.651e-7
-0.021, -2.679e-7
-0.019, -2.729e-7
-0.017, -2.773e-7
-0.015, -2.803e-7
-0.013, -2.840e-7
-0.011, -2.890e-7
-0.009, -2.916e-7
-0.007, -2.960e-7
-0.005, -2.997e-7
-0.003, -3.032e-7
-0.001, -3.063e-7
0.001, -3.091e-7
0.003, -3.145e-7
0.005, -3.170e-7
0.007, -3.211e-7
0.009, -3.233e-7
0.011, -3.286e-7
0.013, -3.315e-7
0.015, -3.351e-7
0.017, -3.378e-7
0.019, -3.407e-7
0.021, -3.441e-7
0.023, -3.483e-7
0.025, -3.514e-7
0.027, -3.545e-7
0.029, -3.583e-7
0.031, -3.617e-7
0.033, -3.635e-7
0.035, -3.681e-7
0.037, -3.716e-7
0.039, -3.748e-7
0.041, -3.782e-7
0.043, -3.816e-7
0.045, -3.853e-7
0.047, -3.876e-7
0.049, -3.904e-7
0.051, -3.947e-7
0.053, -3.993e-7
0.055, -4.024e-7
0.057, -4.071e-7
0.059, -4.113e-7
0.061, -4.139e-7
0.063, -4.190e-7
0.065, -4.230e-7
0.067, -4.284e-7
0.069, -4.339e-7
0.071, -4.390e-7
0.073, -4.431e-7
0.075, -4.491e-7
0.077, -4.552e-7
0.079, -4.622e-7
0.081, -4.691e-7
0.083, -4.769e-7
0.085, -4.855e-7
0.087, -4.955e-7
0.089, -5.059e-7
0.091, -5.167e-7
0.093, -5.303e-7
0.095, -5.445e-7
0.097, -5.586e-7
0.099, -5.748e-7
0.101, -5.931e-7
0.103, -6.145e-7
0.105, -6.363e-7
0.107, -6.618e-7
0.109, -6.877e-7
0.111, -7.215e-7
0.113, -7.557e-7
0.115, -7.931e-7
0.117, -8.349e-7
0.119, -8.818e-7
0.121, -9.317e-7
0.123, -9.881e-7
0.125, -1.050e-6
0.127, -1.117e-6
0.129, -1.193e-6
0.131, -1.274e-6
0.133, -1.363e-6
0.135, -1.461e-6
0.137, -1.566e-6
0.139, -1.678e-6
0.141, -1.797e-6
0.143, -1.930e-6
0.145, -2.074e-6
0.147, -2.231e-6
0.149, -2.396e-6
0.151, -2.574e-6
0.153, -2.763e-6
0.155, -2.963e-6
0.157, -3.177e-6
0.159, -3.403e-6
0.161, -3.641e-6
0.163, -3.878e-6
0.165, -4.140e-6
0.167, -4.414e-6
0.169, -4.703e-6
0.171, -5.003e-6
0.173, -5.317e-6
0.175, -5.642e-6
0.177, -5.973e-6
0.179, -6.321e-6
0.181, -6.678e-6
0.183, -7.048e-6
0.185, -7.430e-6
0.187, -7.826e-6
0.189, -8.225e-6
0.191, -8.632e-6
0.193, -9.045e-6
0.195, -9.469e-6
0.197, -9.898e-6
0.199, -1.034e-5
0.201, -1.078e-5
0.203, -1.124e-5
0.205, -1.169e-5
0.207, -1.216e-5
0.209, -1.262e-5
0.211, -1.310e-5
0.213, -1.357e-5
0.215, -1.405e-5
0.217, -1.453e-5
0.219, -1.501e-5
0.221, -1.550e-5
0.223, -1.599e-5
0.225, -1.648e-5
0.227, -1.697e-5
0.229, -1.745e-5
0.231, -1.793e-5
0.233, -1.841e-5
0.235, -1.890e-5
0.237, -1.937e-5
0.239, -1.984e-5
0.241, -2.031e-5
0.243, -2.077e-5
0.245, -2.123e-5
0.247, -2.169e-5
0.249, -2.214e-5
0.251, -2.258e-5
0.253, -2.302e-5
0.255, -2.345e-5
0.257, -2.387e-5
0.259, -2.428e-5
0.261, -2.468e-5
0.263, -2.507e-5
0.265, -2.545e-5
0.267, -2.581e-5
0.269, -2.616e-5
0.271, -2.650e-5
0.273, -2.684e-5
0.275, -2.715e-5
0.277, -2.745e-5
0.279, -2.774e-5
0.281, -2.801e-5
0.283, -2.826e-5
0.285, -2.851e-5
0.287, -2.873e-5
0.289, -2.894e-5
0.291, -2.914e-5
0.293, -2.931e-5
0.295, -2.947e-5
0.297, -2.962e-5
0.299, -2.975e-5
0.301, -2.987e-5
0.303, -2.997e-5
0.305, -3.005e-5
0.307, -3.013e-5
0.309, -3.018e-5
0.311, -3.023e-5
0.313, -3.026e-5
0.315, -3.027e-5
0.317, -3.028e-5
0.319, -3.027e-5
0.321, -3.025e-5
0.323, -3.022e-5
0.325, -3.019e-5
0.327, -3.014e-5
0.329, -3.008e-5
0.331, -3.002e-5
0.333, -2.994e-5
0.335, -2.986e-5
0.337, -2.977e-5
0.339, -2.967e-5
0.341, -2.958e-5
0.343, -2.947e-5
0.345, -2.936e-5
0.347, -2.924e-5
0.349, -2.913e-5
0.351, -2.900e-5
0.353, -2.887e-5
0.355, -2.875e-5
0.357, -2.861e-5
0.359, -2.847e-5
0.361, -2.834e-5
0.363, -2.820e-5
0.365, -2.806e-5
0.367, -2.792e-5
0.369, -2.777e-5
0.371, -2.763e-5
0.373, -2.749e-5
0.375, -2.734e-5
0.377, -2.719e-5
0.379, -2.705e-5
0.381, -2.690e-5
0.383, -2.676e-5
0.385, -2.661e-5
0.387, -2.647e-5
0.389, -2.632e-5
0.391, -2.618e-5
0.393, -2.604e-5
0.395, -2.590e-5
0.397, -2.576e-5
0.399, -2.561e-5
0.401, -2.548e-5
0.403, -2.534e-5
0.405, -2.521e-5
0.407, -2.507e-5
0.409, -2.493e-5
0.411, -2.480e-5
0.413, -2.467e-5
0.415, -2.454e-5
0.417, -2.441e-5
0.419, -2.428e-5
0.421, -2.415e-5
0.423, -2.403e-5
0.425, -2.390e-5
0.427, -2.378e-5
0.429, -2.366e-5
0.431, -2.354e-5
0.433, -2.341e-5
0.435, -2.329e-5
0.437, -2.318e-5
0.439, -2.306e-5
0.441, -2.295e-5
0.443, -2.283e-5
0.445, -2.272e-5
0.447, -2.261e-5
0.449, -2.251e-5
0.451, -2.240e-5
0.453, -2.229e-5
0.455, -2.219e-5
0.457, -2.209e-5
0.459, -2.199e-5
0.461, -2.189e-5
0.463, -2.179e-5
0.465, -2.169e-5
0.467, -2.160e-5
0.469, -2.151e-5
0.471, -2.142e-5
0.473, -2.132e-5
0.475, -2.123e-5
0.477, -2.115e-5
0.479, -2.106e-5
0.481, -2.097e-5
0.483, -2.088e-5
0.485, -2.080e-5
0.487, -2.071e-5
0.489, -2.063e-5
0.491, -2.056e-5
0.493, -2.047e-5
0.495, -2.039e-5
0.497, -2.032e-5
0.499, -2.024e-5
0.501, -2.016e-5
0.503, -2.009e-5
0.505, -2.002e-5
0.507, -1.995e-5
0.509, -1.987e-5
0.511, -1.980e-5
0.513, -1.973e-5
0.515, -1.967e-5
0.517, -1.960e-5
0.519, -1.953e-5
0.521, -1.948e-5
0.523, -1.942e-5
0.525, -1.935e-5
0.527, -1.929e-5
0.529, -1.923e-5
0.531, -1.916e-5
0.533, -1.910e-5
0.535, -1.904e-5
0.537, -1.898e-5
0.539, -1.893e-5
0.541, -1.887e-5
0.543, -1.881e-5
0.545, -1.875e-5
0.547, -1.870e-5
0.549, -1.864e-5
0.551, -1.859e-5
0.553, -1.854e-5
0.555, -1.849e-5
0.557, -1.843e-5
0.559, -1.838e-5
0.561, -1.833e-5
0.563, -1.828e-5
0.565, -1.823e-5
0.567, -1.818e-5
0.569, -1.813e-5
0.571, -1.808e-5
0.573, -1.804e-5
0.575, -1.799e-5
0.577, -1.795e-5
0.579, -1.790e-5
0.581, -1.785e-5
0.583, -1.781e-5
0.585, -1.777e-5
0.587, -1.772e-5
0.589, -1.768e-5
0.591, -1.764e-5
0.593, -1.760e-5
0.595, -1.756e-5
0.597, -1.752e-5
0.599, -1.748e-5
0.601, -1.744e-5
0.603, -1.740e-5
0.605, -1.736e-5
0.607, -1.732e-5
0.609, -1.728e-5
0.611, -1.725e-5
0.613, -1.721e-5
0.615, -1.717e-5
0.617, -1.714e-5
0.619, -1.710e-5
0.621, -1.707e-5
0.623, -1.703e-5
0.625, -1.700e-5
0.627, -1.696e-5
0.629, -1.693e-5
0.631, -1.689e-5
0.633, -1.686e-5
0.635, -1.683e-5
0.637, -1.679e-5
0.639, -1.676e-5
0.641, -1.673e-5
0.643, -1.670e-5
0.645, -1.667e-5
0.647, -1.664e-5
0.649, -1.661e-5
0.651, -1.658e-5
0.653, -1.655e-5
0.655, -1.652e-5
0.657, -1.649e-5
0.659, -1.646e-5
0.661, -1.643e-5
0.663, -1.640e-5
0.665, -1.637e-5
0.667, -1.634e-5
0.669, -1.632e-5
0.671, -1.629e-5
0.673, -1.626e-5
0.675, -1.624e-5
0.677, -1.621e-5
0.679, -1.619e-5
0.681, -1.616e-5
0.683, -1.614e-5
0.685, -1.611e-5
0.687, -1.609e-5
0.689, -1.606e-5
0.691, -1.604e-5
0.693, -1.602e-5
0.695, -1.599e-5
0.697, -1.597e-5
0.699, -1.595e-5
0.701, -1.593e-5
0.703, -1.590e-5
0.705, -1.588e-5
0.707, -1.586e-5
0.709, -1.584e-5
0.711, -1.582e-5
0.713, -1.579e-5
0.715, -1.577e-5
0.717, -1.575e-5
0.719, -1.573e-5
0.721, -1.571e-5
0.723, -1.569e-5
0.725, -1.567e-5
0.727, -1.565e-5
0.729, -1.563e-5
0.731, -1.562e-5
0.733, -1.560e-5
0.735, -1.558e-5
0.737, -1.555e-5
0.739, -1.553e-5
0.741, -1.552e-5
0.743, -1.550e-5
0.745, -1.548e-5
0.747, -1.546e-5
0.749, -1.544e-5
0.751, -1.543e-5
0.753, -1.541e-5
0.755, -1.539e-5
0.757, -1.538e-5
0.759, -1.536e-5
0.761, -1.534e-5
0.763, -1.533e-5
0.765, -1.531e-5
0.767, -1.530e-5
0.769, -1.528e-5
0.771, -1.527e-5
0.773, -1.525e-5
0.775, -1.524e-5
0.777, -1.522e-5
0.779, -1.520e-5
0.781, -1.519e-5
0.783, -1.518e-5
0.785, -1.516e-5
0.787, -1.515e-5
0.789, -1.514e-5
0.791, -1.512e-5
0.793, -1.511e-5
0.795, -1.510e-5
0.797, -1.508e-5
0.799, -1.507e-5
0.801, -1.506e-5
0.803, -1.505e-5
0.805, -1.504e-5
0.807, -1.502e-5
0.809, -1.501e-5
0.811, -1.500e-5
0.813, -1.499e-5
0.815, -1.498e-5
0.817, -1.497e-5
0.819, -1.496e-5
0.821, -1.495e-5
0.823, -1.493e-5
0.825, -1.492e-5
0.827, -1.491e-5
0.829, -1.491e-5
0.831, -1.489e-5
0.833, -1.489e-5
0.835, -1.488e-5
0.837, -1.487e-5
0.839, -1.486e-5
0.841, -1.485e-5
0.843, -1.484e-5
0.845, -1.483e-5
0.847, -1.483e-5
0.849, -1.482e-5
0.851, -1.481e-5
0.853, -1.480e-5
0.855, -1.479e-5
0.857, -1.479e-5
0.859, -1.478e-5
0.861, -1.477e-5
0.863, -1.477e-5
0.865, -1.476e-5
0.867, -1.475e-5
0.869, -1.475e-5
0.871, -1.474e-5
0.873, -1.474e-5
0.875, -1.473e-5
0.877, -1.473e-5
0.879, -1.472e-5
0.881, -1.471e-5
0.883, -1.471e-5
0.885, -1.471e-5
0.887, -1.470e-5
0.889, -1.470e-5
0.891, -1.469e-5
0.893, -1.469e-5
0.895, -1.469e-5
0.897, -1.468e-5
0.899, -1.468e-5
0.901, -1.468e-5
0.903, -1.467e-5
0.905, -1.467e-5
0.907, -1.467e-5
0.909, -1.467e-5
0.911, -1.467e-5
0.913, -1.466e-5
0.915, -1.466e-5
0.917, -1.466e-5
0.919, -1.466e-5
0.921, -1.466e-5
0.923, -1.466e-5
0.925, -1.466e-5
0.927, -1.466e-5
0.929, -1.466e-5
0.931, -1.466e-5
0.933, -1.466e-5
0.935, -1.466e-5
0.937, -1.466e-5
0.939, -1.466e-5
0.941, -1.466e-5
0.943, -1.466e-5
0.945, -1.467e-5
0.947, -1.467e-5
0.949, -1.467e-5
0.951, -1.467e-5
0.953, -1.468e-5
0.955, -1.468e-5
0.957, -1.468e-5
0.959, -1.469e-5
0.961, -1.469e-5
0.963, -1.470e-5
0.965, -1.470e-5
0.967, -1.471e-5
0.969, -1.471e-5
0.971, -1.472e-5
0.973, -1.472e-5
0.975, -1.473e-5
0.977, -1.474e-5
0.979, -1.474e-5
0.981, -1.475e-5
0.983, -1.476e-5
0.985, -1.476e-5
0.987, -1.477e-5
0.989, -1.478e-5
0.991, -1.479e-5
0.993, -1.480e-5
0.995, -1.481e-5
0.997, -1.482e-5
0.999, -1.483e-5
0.999, -1.468e-5
0.997, -1.451e-5
0.995, -1.440e-5
0.993, -1.430e-5
0.991, -1.422e-5
0.989, -1.414e-5
0.987, -1.407e-5
0.985, -1.400e-5
0.983, -1.393e-5
0.981, -1.387e-5
0.979, -1.382e-5
0.977, -1.376e-5
0.975, -1.371e-5
0.973, -1.366e-5
0.971, -1.362e-5
0.969, -1.357e-5
0.967, -1.353e-5
0.965, -1.349e-5
0.963, -1.345e-5
0.961, -1.341e-5
0.959, -1.337e-5
0.957, -1.334e-5
0.955, -1.330e-5
0.953, -1.326e-5
0.951, -1.323e-5
0.949, -1.320e-5
0.947, -1.316e-5
0.945, -1.313e-5
0.943, -1.311e-5
0.941, -1.308e-5
0.939, -1.305e-5
0.937, -1.302e-5
0.935, -1.299e-5
0.933, -1.296e-5
0.931, -1.294e-5
0.929, -1.291e-5
0.927, -1.288e-5
0.925, -1.286e-5
0.923, -1.284e-5
0.921, -1.281e-5
0.919, -1.279e-5
0.917, -1.276e-5
0.915, -1.274e-5
0.913, -1.272e-5
0.911, -1.270e-5
0.909, -1.267e-5
0.907, -1.265e-5
0.905, -1.263e-5
0.903, -1.261e-5
0.901, -1.259e-5
0.899, -1.257e-5
0.897, -1.255e-5
0.895, -1.253e-5
0.893, -1.251e-5
0.891, -1.249e-5
0.889, -1.247e-5
0.887, -1.245e-5
0.885, -1.243e-5
0.883, -1.241e-5
0.881, -1.240e-5
0.879, -1.238e-5
0.877, -1.236e-5
0.875, -1.234e-5
0.873, -1.233e-5
0.871, -1.231e-5
0.869, -1.229e-5
0.867, -1.227e-5
0.865, -1.226e-5
0.863, -1.224e-5
0.861, -1.222e-5
0.859, -1.221e-5
0.857, -1.219e-5
0.855, -1.218e-5
0.853, -1.216e-5
0.851, -1.214e-5
0.849, -1.213e-5
0.847, -1.211e-5
0.845, -1.210e-5
0.843, -1.208e-5
0.841, -1.207e-5
0.839, -1.205e-5
0.837, -1.204e-5
0.835, -1.202e-5
0.833, -1.201e-5
0.831, -1.199e-5
0.829, -1.198e-5
0.827, -1.196e-5
0.825, -1.195e-5
0.823, -1.193e-5
0.821, -1.192e-5
0.819, -1.190e-5
0.817, -1.189e-5
0.815, -1.188e-5
0.813, -1.186e-5
0.811, -1.185e-5
0.809, -1.184e-5
0.807, -1.182e-5
0.805, -1.181e-5
0.803, -1.180e-5
0.801, -1.178e-5
0.799, -1.177e-5
0.797, -1.176e-5
0.795, -1.174e-5
0.793, -1.173e-5
0.791, -1.172e-5
0.789, -1.171e-5
0.787, -1.169e-5
0.785, -1.168e-5
0.783, -1.166e-5
0.781, -1.165e-5
0.779, -1.164e-5
0.777, -1.163e-5
0.775, -1.161e-5
0.773, -1.160e-5
0.771, -1.159e-5
0.769, -1.158e-5
0.767, -1.157e-5
0.765, -1.155e-5
0.763, -1.154e-5
0.761, -1.153e-5
0.759, -1.152e-5
0.757, -1.150e-5
0.755, -1.149e-5
0.753, -1.148e-5
0.751, -1.147e-5
0.749, -1.146e-5
0.747, -1.144e-5
0.745, -1.143e-5
0.743, -1.142e-5
0.741, -1.141e-5
0.739, -1.139e-5
0.737, -1.138e-5
0.735, -1.137e-5
0.733, -1.136e-5
0.731, -1.135e-5
0.729, -1.134e-5
0.727, -1.133e-5
0.725, -1.131e-5
0.723, -1.130e-5
0.721, -1.129e-5
0.719, -1.128e-5
0.717, -1.127e-5
0.715, -1.126e-5
0.713, -1.124e-5
0.711, -1.123e-5
0.709, -1.122e-5
0.707, -1.121e-5
0.705, -1.120e-5
0.703, -1.119e-5
0.701, -1.118e-5
0.699, -1.116e-5
0.697, -1.115e-5
0.695, -1.114e-5
0.693, -1.113e-5
0.691, -1.112e-5
0.689, -1.111e-5
0.687, -1.110e-5
0.685, -1.109e-5
0.683, -1.108e-5
0.681, -1.107e-5
0.679, -1.106e-5
0.677, -1.104e-5
0.675, -1.103e-5
0.673, -1.102e-5
0.671, -1.101e-5
0.669, -1.100e-5
0.667, -1.099e-5
0.665, -1.098e-5
0.663, -1.097e-5
0.661, -1.096e-5
0.659, -1.095e-5
0.657, -1.093e-5
0.655, -1.092e-5
0.653, -1.091e-5
0.651, -1.090e-5
0.649, -1.089e-5
0.647, -1.088e-5
0.645, -1.087e-5
0.643, -1.086e-5
0.641, -1.085e-5
0.639, -1.084e-5
0.637, -1.082e-5
0.635, -1.081e-5
0.633, -1.080e-5
0.631, -1.079e-5
0.629, -1.078e-5
0.627, -1.077e-5
0.625, -1.076e-5
0.623, -1.075e-5
0.621, -1.074e-5
0.619, -1.073e-5
0.617, -1.072e-5
0.615, -1.070e-5
0.613, -1.069e-5
0.611, -1.068e-5
0.609, -1.067e-5
0.607, -1.066e-5
0.605, -1.065e-5
0.603, -1.064e-5
0.601, -1.063e-5
0.599, -1.061e-5
0.597, -1.060e-5
0.595, -1.059e-5
0.593, -1.058e-5
0.591, -1.057e-5
0.589, -1.056e-5
0.587, -1.054e-5
0.585, -1.053e-5
0.583, -1.052e-5
0.581, -1.051e-5
0.579, -1.050e-5
0.577, -1.048e-5
0.575, -1.047e-5
0.573, -1.046e-5
0.571, -1.045e-5
0.569, -1.044e-5
0.567, -1.043e-5
0.565, -1.041e-5
0.563, -1.040e-5
0.561, -1.039e-5
0.559, -1.038e-5
0.557, -1.036e-5
0.555, -1.035e-5
0.553, -1.034e-5
0.551, -1.032e-5
0.549, -1.031e-5
0.547, -1.030e-5
0.545, -1.028e-5
0.543, -1.027e-5
0.541, -1.026e-5
0.539, -1.024e-5
0.537, -1.023e-5
0.535, -1.022e-5
0.533, -1.020e-5
0.531, -1.019e-5
0.529, -1.018e-5
0.527, -1.016e-5
0.525, -1.015e-5
0.523, -1.013e-5
0.521, -1.012e-5
0.519, -1.010e-5
0.517, -1.009e-5
0.515, -1.007e-5
0.513, -1.006e-5
0.511, -1.004e-5
0.509, -1.003e-5
0.507, -1.001e-5
0.505, -9.993e-6
0.503, -9.977e-6
0.501, -9.960e-6
0.499, -9.942e-6
0.497, -9.926e-6
0.495, -9.908e-6
0.493, -9.892e-6
0.491, -9.874e-6
0.489, -9.856e-6
0.487, -9.839e-6
0.485, -9.821e-6
0.483, -9.803e-6
0.481, -9.783e-6
0.479, -9.764e-6
0.477, -9.744e-6
0.475, -9.725e-6
0.473, -9.705e-6
0.471, -9.685e-6
0.469, -9.666e-6
0.467, -9.645e-6
0.465, -9.625e-6
0.463, -9.603e-6
0.461, -9.582e-6
0.459, -9.559e-6
0.457, -9.538e-6
0.455, -9.515e-6
0.453, -9.492e-6
0.451, -9.467e-6
0.449, -9.443e-6
0.447, -9.418e-6
0.445, -9.393e-6
0.443, -9.368e-6
0.441, -9.342e-6
0.439, -9.314e-6
0.437, -9.288e-6
0.435, -9.259e-6
0.433, -9.232e-6
0.431, -9.203e-6
0.429, -9.173e-6
0.427, -9.144e-6
0.425, -9.112e-6
0.423, -9.082e-6
0.421, -9.053e-6
0.419, -9.021e-6
0.417, -8.989e-6
0.415, -8.955e-6
0.413, -8.923e-6
0.411, -8.886e-6
0.409, -8.851e-6
0.407, -8.813e-6
0.405, -8.778e-6
0.403, -8.740e-6
0.401, -8.702e-6
0.399, -8.663e-6
0.397, -8.623e-6
0.395, -8.583e-6
0.393, -8.540e-6
0.391, -8.497e-6
0.389, -8.454e-6
0.387, -8.411e-6
0.385, -8.365e-6
0.383, -8.319e-6
0.381, -8.273e-6
0.379, -8.224e-6
0.377, -8.175e-6
0.375, -8.125e-6
0.373, -8.076e-6
0.371, -8.023e-6
0.369, -7.970e-6
0.367, -7.916e-6
0.365, -7.860e-6
0.363, -7.806e-6
0.361, -7.751e-6
0.359, -7.690e-6
0.357, -7.628e-6
0.355, -7.564e-6
0.353, -7.502e-6
0.351, -7.439e-6
0.349, -7.373e-6
0.347, -7.309e-6
0.345, -7.243e-6
0.343, -7.175e-6
0.341, -7.104e-6
0.339, -7.033e-6
0.337, -6.962e-6
0.335, -6.889e-6
0.333, -6.816e-6
0.331, -6.741e-6
0.329, -6.666e-6
0.327, -6.586e-6
0.325, -6.504e-6
0.323, -6.425e-6
0.321, -6.344e-6
0.319, -6.263e-6
0.317, -6.179e-6
0.315, -6.091e-6
0.313, -6.005e-6
0.311, -5.916e-6
0.309, -5.825e-6
0.307, -5.737e-6
0.305, -5.649e-6
0.303, -5.557e-6
0.301, -5.462e-6
0.299, -5.366e-6
0.297, -5.269e-6
0.295, -5.172e-6
0.293, -5.074e-6
0.291, -4.974e-6
0.289, -4.875e-6
0.287, -4.772e-6
0.285, -4.670e-6
0.283, -4.566e-6
0.281, -4.462e-6
0.279, -4.357e-6
0.277, -4.253e-6
0.275, -4.146e-6
0.273, -4.038e-6
0.271, -3.932e-6
0.269, -3.830e-6
0.267, -3.734e-6
0.265, -3.627e-6
0.263, -3.517e-6
0.261, -3.410e-6
0.259, -3.299e-6
0.257, -3.192e-6
0.255, -3.084e-6
0.253, -2.977e-6
0.251, -2.872e-6
0.249, -2.764e-6
0.247, -2.657e-6
0.245, -2.551e-6
0.243, -2.447e-6
0.241, -2.343e-6
0.239, -2.240e-6
0.237, -2.138e-6
0.235, -2.037e-6
0.233, -1.937e-6
0.231, -1.839e-6
0.229, -1.746e-6
0.227, -1.653e-6
0.225, -1.559e-6
0.223, -1.470e-6
0.221, -1.380e-6
0.219, -1.290e-6
0.217, -1.206e-6
0.215, -1.120e-6
0.213, -1.037e-6
0.211, -9.566e-7
0.209, -8.808e-7
0.207, -8.041e-7
0.205, -7.298e-7
0.203, -6.589e-7
0.201, -5.909e-7
0.199, -5.240e-7
0.197, -4.591e-7
0.195, -3.975e-7
0.193, -3.389e-7
0.191, -2.860e-7
0.189, -2.304e-7
0.187, -1.769e-7
0.185, -1.261e-7
0.183, -7.847e-8
0.181, -3.325e-8
0.179, 8.587e-9
0.177, 5.042e-8
0.175, 8.981e-8
0.173, 1.262e-7
0.171, 1.623e-7
0.169, 1.963e-7
0.167, 2.296e-7
0.165, 2.598e-7
0.163, 2.890e-7
0.161, 3.158e-7
0.159, 3.404e-7
0.157, 3.637e-7
0.155, 3.856e-7
0.153, 4.051e-7
0.151, 4.250e-7
0.149, 4.417e-7
0.147, 4.587e-7
0.145, 4.741e-7
0.143, 4.889e-7
0.141, 5.015e-7
0.139, 5.142e-7
0.137, 5.274e-7
0.135, 5.382e-7
0.133, 5.497e-7
0.131, 5.594e-7
0.129, 5.685e-7
0.127, 5.765e-7
0.125, 5.845e-7
0.123, 5.929e-7
0.121, 5.991e-7
0.119, 6.063e-7
0.117, 6.114e-7
0.115, 6.175e-7
0.113, 6.230e-7
0.111, 6.282e-7
0.109, 6.335e-7
0.107, 6.382e-7
0.105, 6.428e-7
0.103, 6.471e-7
0.101, 6.515e-7
0.099, 6.551e-7
0.097, 6.597e-7
0.095, 6.638e-7
0.093, 6.667e-7
0.091, 6.704e-7
0.089, 6.730e-7
0.087, 6.770e-7
0.085, 6.808e-7
0.083, 6.832e-7
0.081, 6.861e-7
0.079, 6.897e-7
0.077, 6.926e-7
0.075, 6.956e-7
0.073, 6.982e-7
0.071, 7.010e-7
0.069, 7.038e-7
0.067, 7.064e-7
0.065, 7.093e-7
0.063, 7.112e-7
0.061, 7.146e-7
0.059, 7.174e-7
0.057, 7.205e-7
0.055, 7.231e-7
0.053, 7.253e-7
0.051, 7.273e-7
0.049, 7.306e-7
0.047, 7.333e-7
0.045, 7.361e-7
0.043, 7.383e-7
0.041, 7.408e-7
0.039, 7.439e-7
0.037, 7.454e-7
0.035, 7.494e-7
0.033, 7.517e-7
0.031, 7.539e-7
0.029, 7.558e-7
0.027, 7.596e-7
0.025, 7.612e-7
0.023, 7.642e-7
0.021, 7.665e-7
0.019, 7.697e-7
0.017, 7.726e-7
0.015, 7.747e-7
0.013, 7.763e-7
0.011, 7.801e-7
0.009, 7.826e-7
0.007, 7.853e-7
0.005, 7.881e-7
0.003, 7.907e-7
0.001, 7.935e-7
-0.001, 7.965e-7
-0.003, 7.991e-7
-0.005, 8.019e-7
-0.007, 8.048e-7
-0.009, 8.071e-7
-0.011, 8.100e-7
-0.013, 8.119e-7
-0.015, 8.156e-7
-0.017, 8.176e-7
-0.019, 8.209e-7
-0.021, 8.240e-7
-0.023, 8.271e-7
-0.025, 8.297e-7
-0.027, 8.337e-7
-0.029, 8.371e-7
-0.031, 8.393e-7
-0.033, 8.424e-7
-0.035, 8.453e-7
-0.037, 8.482e-7
-0.039, 8.520e-7
-0.041, 8.549e-7
-0.043, 8.578e-7
-0.045, 8.615e-7
-0.047, 8.649e-7
-0.049, 8.675e-7
-0.051, 8.713e-7
-0.053, 8.750e-7
-0.055, 8.781e-7
-0.057, 8.827e-7
-0.059, 8.853e-7
-0.061, 8.890e-7
-0.063, 8.937e-7
-0.065, 8.972e-7
-0.067, 9.003e-7
-0.069, 9.055e-7
-0.071, 9.088e-7
-0.073, 9.118e-7
-0.075, 9.161e-7
-0.077, 9.202e-7
-0.079, 9.240e-7
-0.081, 9.282e-7
-0.083, 9.327e-7
-0.085, 9.367e-7
-0.087, 9.415e-7
-0.089, 9.459e-7
-0.091, 9.501e-7
-0.093, 9.550e-7
-0.095, 9.593e-7
-0.097, 9.645e-7
-0.099, 9.693e-7
-0.101, 9.747e-7
-0.103, 9.799e-7
-0.105, 9.851e-7
-0.107, 9.900e-7
-0.109, 9.958e-7
-0.111, 1.000e-6
-0.113, 1.006e-6
-0.115, 1.011e-6
-0.117, 1.018e-6
-0.119, 1.023e-6
-0.121, 1.030e-6
-0.123, 1.035e-6
-0.125, 1.043e-6
-0.127, 1.048e-6
-0.129, 1.055e-6
-0.131, 1.061e-6
-0.133, 1.069e-6
-0.135, 1.075e-6
-0.137, 1.082e-6
-0.139, 1.089e-6
-0.141, 1.096e-6
-0.143, 1.103e-6
-0.145, 1.111e-6
-0.147, 1.118e-6
-0.149, 1.127e-6
-0.151, 1.134e-6
-0.153, 1.143e-6
-0.155, 1.151e-6
-0.157, 1.160e-6
-0.159, 1.171e-6
-0.161, 1.180e-6
-0.163, 1.189e-6
-0.165, 1.199e-6
-0.167, 1.208e-6
-0.169, 1.221e-6
-0.171, 1.233e-6
-0.173, 1.245e-6
-0.175, 1.258e-6
-0.177, 1.264e-6
-0.179, 1.277e-6
-0.181, 1.288e-6
-0.183, 1.300e-6
-0.185, 1.314e-6
-0.187, 1.326e-6
-0.189, 1.339e-6
-0.191, 1.353e-6
-0.193, 1.366e-6
-0.195, 1.379e-6
-0.197, 1.394e-6
-0.199, 1.408e-6
