Sept. 5, 2019   16:21:48
Cyclic Voltammetry
File: c:\users\1\desktop\2019Data Source:  Experiment
Instrument Model:  CHI630E
Header: 
Note: 

Init E (V) = -0.2
High E (V) = 1
Low E (V) = -0.2
Init P/N = P
Scan Rate (V/s) = 0.04
Segment = 2
Sample Interval (V) = 0.002
Quiet Time (sec) = 2
Sensitivity (A/V) = 1e-4

Segment 1:
Ep = 0.341V
ip = -3.341e-5A
Ah = -8.623e-5C

Segment 2:

Potential/V, Current/A

-0.199, 9.440e-7
-0.197, 8.230e-7
-0.195, 7.651e-7
-0.193, 7.168e-7
-0.191, 6.749e-7
-0.189, 6.355e-7
-0.187, 6.009e-7
-0.185, 5.672e-7
-0.183, 5.349e-7
-0.181, 5.050e-7
-0.179, 4.765e-7
-0.177, 4.487e-7
-0.175, 4.237e-7
-0.173, 3.985e-7
-0.171, 3.748e-7
-0.169, 3.518e-7
-0.167, 3.299e-7
-0.165, 3.085e-7
-0.163, 2.882e-7
-0.161, 2.660e-7
-0.159, 2.460e-7
-0.157, 2.270e-7
-0.155, 2.069e-7
-0.153, 1.890e-7
-0.151, 1.719e-7
-0.149, 1.549e-7
-0.147, 1.372e-7
-0.145, 1.223e-7
-0.143, 1.059e-7
-0.141, 9.281e-8
-0.139, 7.862e-8
-0.137, 6.444e-8
-0.135, 4.884e-8
-0.133, 3.577e-8
-0.131, 2.300e-8
-0.129, 1.087e-8
-0.127, -1.891e-9
-0.125, -1.339e-8
-0.123, -2.584e-8
-0.121, -3.734e-8
-0.119, -4.821e-8
-0.117, -5.917e-8
-0.115, -6.996e-8
-0.113, -8.067e-8
-0.111, -9.202e-8
-0.109, -1.019e-7
-0.107, -1.120e-7
-0.105, -1.220e-7
-0.103, -1.324e-7
-0.101, -1.401e-7
-0.099, -1.512e-7
-0.097, -1.602e-7
-0.095, -1.694e-7
-0.093, -1.788e-7
-0.091, -1.873e-7
-0.089, -1.936e-7
-0.087, -2.045e-7
-0.085, -2.118e-7
-0.083, -2.203e-7
-0.081, -2.288e-7
-0.079, -2.368e-7
-0.077, -2.425e-7
-0.075, -2.524e-7
-0.073, -2.595e-7
-0.071, -2.671e-7
-0.069, -2.740e-7
-0.067, -2.814e-7
-0.065, -2.870e-7
-0.063, -2.939e-7
-0.061, -3.019e-7
-0.059, -3.087e-7
-0.057, -3.156e-7
-0.055, -3.213e-7
-0.053, -3.269e-7
-0.051, -3.317e-7
-0.049, -3.393e-7
-0.047, -3.462e-7
-0.045, -3.518e-7
-0.043, -3.578e-7
-0.041, -3.637e-7
-0.039, -3.695e-7
-0.037, -3.737e-7
-0.035, -3.810e-7
-0.033, -3.849e-7
-0.031, -3.912e-7
-0.029, -3.972e-7
-0.027, -4.027e-7
-0.025, -4.084e-7
-0.023, -4.136e-7
-0.021, -4.187e-7
-0.019, -4.249e-7
-0.017, -4.298e-7
-0.015, -4.336e-7
-0.013, -4.401e-7
-0.011, -4.460e-7
-0.009, -4.513e-7
-0.007, -4.561e-7
-0.005, -4.599e-7
-0.003, -4.658e-7
-0.001, -4.708e-7
0.001, -4.762e-7
0.003, -4.795e-7
0.005, -4.867e-7
0.007, -4.913e-7
0.009, -4.964e-7
0.011, -5.006e-7
0.013, -5.052e-7
0.015, -5.100e-7
0.017, -5.146e-7
0.019, -5.204e-7
0.021, -5.249e-7
0.023, -5.279e-7
0.025, -5.343e-7
0.027, -5.381e-7
0.029, -5.439e-7
0.031, -5.489e-7
0.033, -5.534e-7
0.035, -5.578e-7
0.037, -5.624e-7
0.039, -5.671e-7
0.041, -5.720e-7
0.043, -5.742e-7
0.045, -5.800e-7
0.047, -5.847e-7
0.049, -5.905e-7
0.051, -5.939e-7
0.053, -6.002e-7
0.055, -6.054e-7
0.057, -6.099e-7
0.059, -6.146e-7
0.061, -6.173e-7
0.063, -6.229e-7
0.065, -6.279e-7
0.067, -6.334e-7
0.069, -6.389e-7
0.071, -6.448e-7
0.073, -6.498e-7
0.075, -6.540e-7
0.077, -6.588e-7
0.079, -6.674e-7
0.081, -6.745e-7
0.083, -6.805e-7
0.085, -6.895e-7
0.087, -6.974e-7
0.089, -7.053e-7
0.091, -7.114e-7
0.093, -7.238e-7
0.095, -7.335e-7
0.097, -7.451e-7
0.099, -7.551e-7
0.101, -7.680e-7
0.103, -7.810e-7
0.105, -7.982e-7
0.107, -8.132e-7
0.109, -8.308e-7
0.111, -8.504e-7
0.113, -8.704e-7
0.115, -8.940e-7
0.117, -9.199e-7
0.119, -9.460e-7
0.121, -9.766e-7
0.123, -1.010e-6
0.125, -1.047e-6
0.127, -1.087e-6
0.129, -1.130e-6
0.131, -1.180e-6
0.133, -1.232e-6
0.135, -1.292e-6
0.137, -1.355e-6
0.139, -1.424e-6
0.141, -1.500e-6
0.143, -1.579e-6
0.145, -1.668e-6
0.147, -1.759e-6
0.149, -1.863e-6
0.151, -1.975e-6
0.153, -2.095e-6
0.155, -2.226e-6
0.157, -2.367e-6
0.159, -2.517e-6
0.161, -2.679e-6
0.163, -2.850e-6
0.165, -3.032e-6
0.167, -3.225e-6
0.169, -3.432e-6
0.171, -3.650e-6
0.173, -3.866e-6
0.175, -4.106e-6
0.177, -4.363e-6
0.179, -4.632e-6
0.181, -4.912e-6
0.183, -5.208e-6
0.185, -5.516e-6
0.187, -5.833e-6
0.189, -6.167e-6
0.191, -6.514e-6
0.193, -6.871e-6
0.195, -7.244e-6
0.197, -7.633e-6
0.199, -8.032e-6
0.201, -8.440e-6
0.203, -8.858e-6
0.205, -9.286e-6
0.207, -9.724e-6
0.209, -1.017e-5
0.211, -1.063e-5
0.213, -1.110e-5
0.215, -1.159e-5
0.217, -1.207e-5
0.219, -1.256e-5
0.221, -1.306e-5
0.223, -1.357e-5
0.225, -1.408e-5
0.227, -1.460e-5
0.229, -1.513e-5
0.231, -1.566e-5
0.233, -1.620e-5
0.235, -1.674e-5
0.237, -1.727e-5
0.239, -1.781e-5
0.241, -1.836e-5
0.243, -1.890e-5
0.245, -1.944e-5
0.247, -1.997e-5
0.249, -2.052e-5
0.251, -2.106e-5
0.253, -2.160e-5
0.255, -2.214e-5
0.257, -2.267e-5
0.259, -2.321e-5
0.261, -2.374e-5
0.263, -2.427e-5
0.265, -2.479e-5
0.267, -2.530e-5
0.269, -2.579e-5
0.271, -2.628e-5
0.273, -2.678e-5
0.275, -2.726e-5
0.277, -2.773e-5
0.279, -2.819e-5
0.281, -2.864e-5
0.283, -2.907e-5
0.285, -2.949e-5
0.287, -2.991e-5
0.289, -3.031e-5
0.291, -3.070e-5
0.293, -3.108e-5
0.295, -3.144e-5
0.297, -3.179e-5
0.299, -3.212e-5
0.301, -3.244e-5
0.303, -3.274e-5
0.305, -3.302e-5
0.307, -3.329e-5
0.309, -3.354e-5
0.311, -3.378e-5
0.313, -3.400e-5
0.315, -3.421e-5
0.317, -3.440e-5
0.319, -3.457e-5
0.321, -3.472e-5
0.323, -3.486e-5
0.325, -3.499e-5
0.327, -3.510e-5
0.329, -3.519e-5
0.331, -3.526e-5
0.333, -3.532e-5
0.335, -3.537e-5
0.337, -3.541e-5
0.339, -3.543e-5
0.341, -3.544e-5
0.343, -3.544e-5
0.345, -3.543e-5
0.347, -3.540e-5
0.349, -3.537e-5
0.351, -3.532e-5
0.353, -3.527e-5
0.355, -3.521e-5
0.357, -3.514e-5
0.359, -3.506e-5
0.361, -3.497e-5
0.363, -3.487e-5
0.365, -3.477e-5
0.367, -3.466e-5
0.369, -3.455e-5
0.371, -3.442e-5
0.373, -3.430e-5
0.375, -3.417e-5
0.377, -3.403e-5
0.379, -3.390e-5
0.381, -3.375e-5
0.383, -3.361e-5
0.385, -3.346e-5
0.387, -3.331e-5
0.389, -3.316e-5
0.391, -3.301e-5
0.393, -3.286e-5
0.395, -3.270e-5
0.397, -3.254e-5
0.399, -3.238e-5
0.401, -3.222e-5
0.403, -3.206e-5
0.405, -3.190e-5
0.407, -3.174e-5
0.409, -3.158e-5
0.411, -3.142e-5
0.413, -3.125e-5
0.415, -3.109e-5
0.417, -3.093e-5
0.419, -3.077e-5
0.421, -3.061e-5
0.423, -3.045e-5
0.425, -3.030e-5
0.427, -3.014e-5
0.429, -2.999e-5
0.431, -2.983e-5
0.433, -2.968e-5
0.435, -2.953e-5
0.437, -2.938e-5
0.439, -2.923e-5
0.441, -2.908e-5
0.443, -2.893e-5
0.445, -2.879e-5
0.447, -2.865e-5
0.449, -2.850e-5
0.451, -2.836e-5
0.453, -2.822e-5
0.455, -2.808e-5
0.457, -2.794e-5
0.459, -2.781e-5
0.461, -2.767e-5
0.463, -2.754e-5
0.465, -2.741e-5
0.467, -2.728e-5
0.469, -2.715e-5
0.471, -2.702e-5
0.473, -2.689e-5
0.475, -2.677e-5
0.477, -2.664e-5
0.479, -2.652e-5
0.481, -2.640e-5
0.483, -2.628e-5
0.485, -2.617e-5
0.487, -2.605e-5
0.489, -2.594e-5
0.491, -2.583e-5
0.493, -2.571e-5
0.495, -2.560e-5
0.497, -2.550e-5
0.499, -2.539e-5
0.501, -2.529e-5
0.503, -2.518e-5
0.505, -2.508e-5
0.507, -2.498e-5
0.509, -2.488e-5
0.511, -2.478e-5
0.513, -2.468e-5
0.515, -2.459e-5
0.517, -2.449e-5
0.519, -2.440e-5
0.521, -2.431e-5
0.523, -2.421e-5
0.525, -2.412e-5
0.527, -2.403e-5
0.529, -2.394e-5
0.531, -2.386e-5
0.533, -2.377e-5
0.535, -2.369e-5
0.537, -2.360e-5
0.539, -2.352e-5
0.541, -2.344e-5
0.543, -2.336e-5
0.545, -2.328e-5
0.547, -2.320e-5
0.549, -2.312e-5
0.551, -2.304e-5
0.553, -2.297e-5
0.555, -2.289e-5
0.557, -2.282e-5
0.559, -2.275e-5
0.561, -2.268e-5
0.563, -2.261e-5
0.565, -2.254e-5
0.567, -2.247e-5
0.569, -2.240e-5
0.571, -2.234e-5
0.573, -2.227e-5
0.575, -2.220e-5
0.577, -2.214e-5
0.579, -2.208e-5
0.581, -2.201e-5
0.583, -2.195e-5
0.585, -2.189e-5
0.587, -2.183e-5
0.589, -2.177e-5
0.591, -2.171e-5
0.593, -2.166e-5
0.595, -2.160e-5
0.597, -2.154e-5
0.599, -2.149e-5
0.601, -2.143e-5
0.603, -2.138e-5
0.605, -2.133e-5
0.607, -2.127e-5
0.609, -2.122e-5
0.611, -2.117e-5
0.613, -2.112e-5
0.615, -2.107e-5
0.617, -2.102e-5
0.619, -2.097e-5
0.621, -2.092e-5
0.623, -2.087e-5
0.625, -2.082e-5
0.627, -2.077e-5
0.629, -2.073e-5
0.631, -2.068e-5
0.633, -2.064e-5
0.635, -2.059e-5
0.637, -2.055e-5
0.639, -2.050e-5
0.641, -2.046e-5
0.643, -2.042e-5
0.645, -2.037e-5
0.647, -2.033e-5
0.649, -2.029e-5
0.651, -2.025e-5
0.653, -2.021e-5
0.655, -2.016e-5
0.657, -2.012e-5
0.659, -2.009e-5
0.661, -2.005e-5
0.663, -2.001e-5
0.665, -1.997e-5
0.667, -1.993e-5
0.669, -1.990e-5
0.671, -1.986e-5
0.673, -1.982e-5
0.675, -1.979e-5
0.677, -1.975e-5
0.679, -1.972e-5
0.681, -1.968e-5
0.683, -1.965e-5
0.685, -1.961e-5
0.687, -1.958e-5
0.689, -1.955e-5
0.691, -1.952e-5
0.693, -1.949e-5
0.695, -1.947e-5
0.697, -1.944e-5
0.699, -1.941e-5
0.701, -1.937e-5
0.703, -1.935e-5
0.705, -1.931e-5
0.707, -1.929e-5
0.709, -1.926e-5
0.711, -1.923e-5
0.713, -1.920e-5
0.715, -1.917e-5
0.717, -1.914e-5
0.719, -1.911e-5
0.721, -1.909e-5
0.723, -1.906e-5
0.725, -1.903e-5
0.727, -1.900e-5
0.729, -1.898e-5
0.731, -1.895e-5
0.733, -1.892e-5
0.735, -1.890e-5
0.737, -1.887e-5
0.739, -1.885e-5
0.741, -1.882e-5
0.743, -1.880e-5
0.745, -1.877e-5
0.747, -1.875e-5
0.749, -1.872e-5
0.751, -1.870e-5
0.753, -1.868e-5
0.755, -1.866e-5
0.757, -1.863e-5
0.759, -1.861e-5
0.761, -1.859e-5
0.763, -1.857e-5
0.765, -1.855e-5
0.767, -1.853e-5
0.769, -1.850e-5
0.771, -1.848e-5
0.773, -1.846e-5
0.775, -1.844e-5
0.777, -1.842e-5
0.779, -1.840e-5
0.781, -1.838e-5
0.783, -1.836e-5
0.785, -1.834e-5
0.787, -1.832e-5
0.789, -1.830e-5
0.791, -1.829e-5
0.793, -1.827e-5
0.795, -1.825e-5
0.797, -1.823e-5
0.799, -1.821e-5
0.801, -1.820e-5
0.803, -1.818e-5
0.805, -1.816e-5
0.807, -1.814e-5
0.809, -1.813e-5
0.811, -1.811e-5
0.813, -1.809e-5
0.815, -1.808e-5
0.817, -1.806e-5
0.819, -1.805e-5
0.821, -1.803e-5
0.823, -1.802e-5
0.825, -1.800e-5
0.827, -1.799e-5
0.829, -1.798e-5
0.831, -1.796e-5
0.833, -1.795e-5
0.835, -1.794e-5
0.837, -1.792e-5
0.839, -1.791e-5
0.841, -1.790e-5
0.843, -1.788e-5
0.845, -1.787e-5
0.847, -1.786e-5
0.849, -1.785e-5
0.851, -1.783e-5
0.853, -1.782e-5
0.855, -1.781e-5
0.857, -1.780e-5
0.859, -1.779e-5
0.861, -1.778e-5
0.863, -1.777e-5
0.865, -1.776e-5
0.867, -1.775e-5
0.869, -1.774e-5
0.871, -1.773e-5
0.873, -1.772e-5
0.875, -1.771e-5
0.877, -1.770e-5
0.879, -1.770e-5
0.881, -1.769e-5
0.883, -1.768e-5
0.885, -1.767e-5
0.887, -1.767e-5
0.889, -1.766e-5
0.891, -1.765e-5
0.893, -1.765e-5
0.895, -1.764e-5
0.897, -1.763e-5
0.899, -1.763e-5
0.901, -1.763e-5
0.903, -1.762e-5
0.905, -1.761e-5
0.907, -1.761e-5
0.909, -1.760e-5
0.911, -1.760e-5
0.913, -1.760e-5
0.915, -1.759e-5
0.917, -1.759e-5
0.919, -1.759e-5
0.921, -1.758e-5
0.923, -1.758e-5
0.925, -1.758e-5
0.927, -1.758e-5
0.929, -1.758e-5
0.931, -1.758e-5
0.933, -1.758e-5
0.935, -1.757e-5
0.937, -1.757e-5
0.939, -1.758e-5
0.941, -1.758e-5
0.943, -1.758e-5
0.945, -1.758e-5
0.947, -1.758e-5
0.949, -1.758e-5
0.951, -1.758e-5
0.953, -1.759e-5
0.955, -1.759e-5
0.957, -1.759e-5
0.959, -1.760e-5
0.961, -1.760e-5
0.963, -1.761e-5
0.965, -1.761e-5
0.967, -1.762e-5
0.969, -1.762e-5
0.971, -1.763e-5
0.973, -1.763e-5
0.975, -1.764e-5
0.977, -1.765e-5
0.979, -1.766e-5
0.981, -1.767e-5
0.983, -1.767e-5
0.985, -1.768e-5
0.987, -1.769e-5
0.989, -1.770e-5
0.991, -1.771e-5
0.993, -1.773e-5
0.995, -1.774e-5
0.997, -1.775e-5
0.999, -1.776e-5
0.999, -1.758e-5
0.997, -1.731e-5
0.995, -1.715e-5
0.993, -1.702e-5
0.991, -1.690e-5
0.989, -1.680e-5
0.987, -1.670e-5
0.985, -1.661e-5
0.983, -1.652e-5
0.981, -1.644e-5
0.979, -1.637e-5
0.977, -1.630e-5
0.975, -1.623e-5
0.973, -1.616e-5
0.971, -1.610e-5
0.969, -1.604e-5
0.967, -1.599e-5
0.965, -1.593e-5
0.963, -1.588e-5
0.961, -1.583e-5
0.959, -1.578e-5
0.957, -1.573e-5
0.955, -1.569e-5
0.953, -1.564e-5
0.951, -1.560e-5
0.949, -1.555e-5
0.947, -1.551e-5
0.945, -1.547e-5
0.943, -1.543e-5
0.941, -1.539e-5
0.939, -1.535e-5
0.937, -1.532e-5
0.935, -1.528e-5
0.933, -1.525e-5
0.931, -1.521e-5
0.929, -1.518e-5
0.927, -1.515e-5
0.925, -1.511e-5
0.923, -1.508e-5
0.921, -1.505e-5
0.919, -1.502e-5
0.917, -1.499e-5
0.915, -1.496e-5
0.913, -1.493e-5
0.911, -1.491e-5
0.909, -1.488e-5
0.907, -1.485e-5
0.905, -1.483e-5
0.903, -1.480e-5
0.901, -1.477e-5
0.899, -1.475e-5
0.897, -1.472e-5
0.895, -1.470e-5
0.893, -1.467e-5
0.891, -1.465e-5
0.889, -1.463e-5
0.887, -1.460e-5
0.885, -1.458e-5
0.883, -1.456e-5
0.881, -1.453e-5
0.879, -1.451e-5
0.877, -1.449e-5
0.875, -1.447e-5
0.873, -1.444e-5
0.871, -1.442e-5
0.869, -1.440e-5
0.867, -1.438e-5
0.865, -1.436e-5
0.863, -1.434e-5
0.861, -1.432e-5
0.859, -1.430e-5
0.857, -1.428e-5
0.855, -1.426e-5
0.853, -1.424e-5
0.851, -1.422e-5
0.849, -1.420e-5
0.847, -1.418e-5
0.845, -1.416e-5
0.843, -1.414e-5
0.841, -1.412e-5
0.839, -1.411e-5
0.837, -1.409e-5
0.835, -1.407e-5
0.833, -1.405e-5
0.831, -1.403e-5
0.829, -1.402e-5
0.827, -1.400e-5
0.825, -1.398e-5
0.823, -1.396e-5
0.821, -1.394e-5
0.819, -1.393e-5
0.817, -1.391e-5
0.815, -1.389e-5
0.813, -1.387e-5
0.811, -1.386e-5
0.809, -1.384e-5
0.807, -1.382e-5
0.805, -1.381e-5
0.803, -1.379e-5
0.801, -1.377e-5
0.799, -1.376e-5
0.797, -1.374e-5
0.795, -1.372e-5
0.793, -1.371e-5
0.791, -1.369e-5
0.789, -1.368e-5
0.787, -1.366e-5
0.785, -1.364e-5
0.783, -1.363e-5
0.781, -1.361e-5
0.779, -1.360e-5
0.777, -1.359e-5
0.775, -1.357e-5
0.773, -1.356e-5
0.771, -1.354e-5
0.769, -1.353e-5
0.767, -1.351e-5
0.765, -1.349e-5
0.763, -1.348e-5
0.761, -1.346e-5
0.759, -1.345e-5
0.757, -1.343e-5
0.755, -1.342e-5
0.753, -1.340e-5
0.751, -1.339e-5
0.749, -1.338e-5
0.747, -1.336e-5
0.745, -1.335e-5
0.743, -1.333e-5
0.741, -1.332e-5
0.739, -1.330e-5
0.737, -1.329e-5
0.735, -1.327e-5
0.733, -1.326e-5
0.731, -1.324e-5
0.729, -1.323e-5
0.727, -1.321e-5
0.725, -1.320e-5
0.723, -1.318e-5
0.721, -1.317e-5
0.719, -1.316e-5
0.717, -1.314e-5
0.715, -1.313e-5
0.713, -1.311e-5
0.711, -1.310e-5
0.709, -1.309e-5
0.707, -1.307e-5
0.705, -1.306e-5
0.703, -1.305e-5
0.701, -1.303e-5
0.699, -1.302e-5
0.697, -1.300e-5
0.695, -1.299e-5
0.693, -1.298e-5
0.691, -1.296e-5
0.689, -1.295e-5
0.687, -1.293e-5
0.685, -1.292e-5
0.683, -1.291e-5
0.681, -1.289e-5
0.679, -1.288e-5
0.677, -1.287e-5
0.675, -1.285e-5
0.673, -1.284e-5
0.671, -1.282e-5
0.669, -1.281e-5
0.667, -1.280e-5
0.665, -1.278e-5
0.663, -1.277e-5
0.661, -1.275e-5
0.659, -1.274e-5
0.657, -1.273e-5
0.655, -1.271e-5
0.653, -1.270e-5
0.651, -1.269e-5
0.649, -1.267e-5
0.647, -1.266e-5
0.645, -1.265e-5
0.643, -1.263e-5
0.641, -1.262e-5
0.639, -1.260e-5
0.637, -1.259e-5
0.635, -1.257e-5
0.633, -1.256e-5
0.631, -1.255e-5
0.629, -1.253e-5
0.627, -1.252e-5
0.625, -1.250e-5
0.623, -1.249e-5
0.621, -1.248e-5
0.619, -1.246e-5
0.617, -1.245e-5
0.615, -1.243e-5
0.613, -1.242e-5
0.611, -1.240e-5
0.609, -1.239e-5
0.607, -1.237e-5
0.605, -1.236e-5
0.603, -1.235e-5
0.601, -1.233e-5
0.599, -1.231e-5
0.597, -1.230e-5
0.595, -1.229e-5
0.593, -1.227e-5
0.591, -1.225e-5
0.589, -1.224e-5
0.587, -1.222e-5
0.585, -1.221e-5
0.583, -1.219e-5
0.581, -1.218e-5
0.579, -1.216e-5
0.577, -1.214e-5
0.575, -1.213e-5
0.573, -1.211e-5
0.571, -1.210e-5
0.569, -1.208e-5
0.567, -1.206e-5
0.565, -1.205e-5
0.563, -1.203e-5
0.561, -1.202e-5
0.559, -1.200e-5
0.557, -1.198e-5
0.555, -1.196e-5
0.553, -1.195e-5
0.551, -1.193e-5
0.549, -1.191e-5
0.547, -1.190e-5
0.545, -1.188e-5
0.543, -1.186e-5
0.541, -1.184e-5
0.539, -1.183e-5
0.537, -1.181e-5
0.535, -1.179e-5
0.533, -1.177e-5
0.531, -1.175e-5
0.529, -1.173e-5
0.527, -1.171e-5
0.525, -1.169e-5
0.523, -1.167e-5
0.521, -1.165e-5
0.519, -1.163e-5
0.517, -1.161e-5
0.515, -1.159e-5
0.513, -1.157e-5
0.511, -1.155e-5
0.509, -1.153e-5
0.507, -1.150e-5
0.505, -1.148e-5
0.503, -1.146e-5
0.501, -1.143e-5
0.499, -1.141e-5
0.497, -1.139e-5
0.495, -1.137e-5
0.493, -1.134e-5
0.491, -1.132e-5
0.489, -1.129e-5
0.487, -1.126e-5
0.485, -1.124e-5
0.483, -1.122e-5
0.481, -1.119e-5
0.479, -1.116e-5
0.477, -1.113e-5
0.475, -1.111e-5
0.473, -1.108e-5
0.471, -1.105e-5
0.469, -1.102e-5
0.467, -1.099e-5
0.465, -1.096e-5
0.463, -1.093e-5
0.461, -1.090e-5
0.459, -1.087e-5
0.457, -1.084e-5
0.455, -1.081e-5
0.453, -1.077e-5
0.451, -1.074e-5
0.449, -1.071e-5
0.447, -1.067e-5
0.445, -1.064e-5
0.443, -1.060e-5
0.441, -1.056e-5
0.439, -1.052e-5
0.437, -1.049e-5
0.435, -1.045e-5
0.433, -1.041e-5
0.431, -1.037e-5
0.429, -1.033e-5
0.427, -1.029e-5
0.425, -1.025e-5
0.423, -1.020e-5
0.421, -1.016e-5
0.419, -1.012e-5
0.417, -1.007e-5
0.415, -1.002e-5
0.413, -9.973e-6
0.411, -9.925e-6
0.409, -9.875e-6
0.407, -9.825e-6
0.405, -9.772e-6
0.403, -9.721e-6
0.401, -9.667e-6
0.399, -9.614e-6
0.397, -9.561e-6
0.395, -9.505e-6
0.393, -9.446e-6
0.391, -9.386e-6
0.389, -9.326e-6
0.387, -9.265e-6
0.385, -9.201e-6
0.383, -9.137e-6
0.381, -9.073e-6
0.379, -9.008e-6
0.377, -8.941e-6
0.375, -8.872e-6
0.373, -8.801e-6
0.371, -8.732e-6
0.369, -8.658e-6
0.367, -8.581e-6
0.365, -8.506e-6
0.363, -8.429e-6
0.361, -8.351e-6
0.359, -8.270e-6
0.357, -8.191e-6
0.355, -8.107e-6
0.353, -8.022e-6
0.351, -7.937e-6
0.349, -7.850e-6
0.347, -7.764e-6
0.345, -7.672e-6
0.343, -7.574e-6
0.341, -7.483e-6
0.339, -7.387e-6
0.337, -7.292e-6
0.335, -7.194e-6
0.333, -7.094e-6
0.331, -6.994e-6
0.329, -6.893e-6
0.327, -6.790e-6
0.325, -6.688e-6
0.323, -6.581e-6
0.321, -6.471e-6
0.319, -6.366e-6
0.317, -6.257e-6
0.315, -6.146e-6
0.313, -6.033e-6
0.311, -5.919e-6
0.309, -5.805e-6
0.307, -5.692e-6
0.305, -5.578e-6
0.303, -5.462e-6
0.301, -5.341e-6
0.299, -5.223e-6
0.297, -5.100e-6
0.295, -4.980e-6
0.293, -4.861e-6
0.291, -4.738e-6
0.289, -4.615e-6
0.287, -4.489e-6
0.285, -4.366e-6
0.283, -4.242e-6
0.281, -4.117e-6
0.279, -3.992e-6
0.277, -3.871e-6
0.275, -3.759e-6
0.273, -3.638e-6
0.271, -3.512e-6
0.269, -3.387e-6
0.267, -3.266e-6
0.265, -3.142e-6
0.263, -3.018e-6
0.261, -2.898e-6
0.259, -2.776e-6
0.257, -2.657e-6
0.255, -2.537e-6
0.253, -2.419e-6
0.251, -2.304e-6
0.249, -2.185e-6
0.247, -2.072e-6
0.245, -1.961e-6
0.243, -1.849e-6
0.241, -1.744e-6
0.239, -1.636e-6
0.237, -1.534e-6
0.235, -1.431e-6
0.233, -1.327e-6
0.231, -1.228e-6
0.229, -1.130e-6
0.227, -1.035e-6
0.225, -9.418e-7
0.223, -8.505e-7
0.221, -7.624e-7
0.219, -6.728e-7
0.217, -5.927e-7
0.215, -5.100e-7
0.213, -4.314e-7
0.211, -3.558e-7
0.209, -2.820e-7
0.207, -2.116e-7
0.205, -1.413e-7
0.203, -7.492e-8
0.201, -1.166e-8
0.199, 4.869e-8
0.197, 1.075e-7
0.195, 1.648e-7
0.193, 2.217e-7
0.191, 2.761e-7
0.189, 3.242e-7
0.187, 3.712e-7
0.185, 4.161e-7
0.183, 4.599e-7
0.181, 5.004e-7
0.179, 5.384e-7
0.177, 5.757e-7
0.175, 6.098e-7
0.173, 6.437e-7
0.171, 6.736e-7
0.169, 7.024e-7
0.167, 7.305e-7
0.165, 7.549e-7
0.163, 7.799e-7
0.161, 8.040e-7
0.159, 8.245e-7
0.157, 8.450e-7
0.155, 8.647e-7
0.153, 8.817e-7
0.151, 9.014e-7
0.149, 9.151e-7
0.147, 9.298e-7
0.145, 9.448e-7
0.143, 9.567e-7
0.141, 9.690e-7
0.139, 9.808e-7
0.137, 9.920e-7
0.135, 1.002e-6
0.133, 1.013e-6
0.131, 1.023e-6
0.129, 1.031e-6
0.127, 1.038e-6
0.125, 1.047e-6
0.123, 1.054e-6
0.121, 1.060e-6
0.119, 1.067e-6
0.117, 1.074e-6
0.115, 1.079e-6
0.113, 1.086e-6
0.111, 1.091e-6
0.109, 1.095e-6
0.107, 1.100e-6
0.105, 1.106e-6
0.103, 1.111e-6
0.101, 1.114e-6
0.099, 1.120e-6
0.097, 1.124e-6
0.095, 1.128e-6
0.093, 1.132e-6
0.091, 1.136e-6
0.089, 1.139e-6
0.087, 1.143e-6
0.085, 1.149e-6
0.083, 1.151e-6
0.081, 1.155e-6
0.079, 1.159e-6
0.077, 1.162e-6
0.075, 1.165e-6
0.073, 1.169e-6
0.071, 1.174e-6
0.069, 1.176e-6
0.067, 1.179e-6
0.065, 1.183e-6
0.063, 1.186e-6
0.061, 1.191e-6
0.059, 1.194e-6
0.057, 1.197e-6
0.055, 1.201e-6
0.053, 1.204e-6
0.051, 1.208e-6
0.049, 1.212e-6
0.047, 1.215e-6
0.045, 1.217e-6
0.043, 1.221e-6
0.041, 1.224e-6
0.039, 1.230e-6
0.037, 1.230e-6
0.035, 1.233e-6
0.033, 1.239e-6
0.031, 1.242e-6
0.029, 1.246e-6
0.027, 1.249e-6
0.025, 1.251e-6
0.023, 1.256e-6
0.021, 1.259e-6
0.019, 1.264e-6
0.017, 1.267e-6
0.015, 1.270e-6
0.013, 1.274e-6
0.011, 1.278e-6
0.009, 1.282e-6
0.007, 1.286e-6
0.005, 1.289e-6
0.003, 1.292e-6
0.001, 1.298e-6
-0.001, 1.301e-6
-0.003, 1.305e-6
-0.005, 1.308e-6
-0.007, 1.312e-6
-0.009, 1.317e-6
-0.011, 1.320e-6
-0.013, 1.324e-6
-0.015, 1.328e-6
-0.017, 1.332e-6
-0.019, 1.336e-6
-0.021, 1.341e-6
-0.023, 1.346e-6
-0.025, 1.349e-6
-0.027, 1.351e-6
-0.029, 1.356e-6
-0.031, 1.361e-6
-0.033, 1.365e-6
-0.035, 1.368e-6
-0.037, 1.372e-6
-0.039, 1.377e-6
-0.041, 1.381e-6
-0.043, 1.385e-6
-0.045, 1.389e-6
-0.047, 1.395e-6
-0.049, 1.398e-6
-0.051, 1.403e-6
-0.053, 1.406e-6
-0.055, 1.412e-6
-0.057, 1.416e-6
-0.059, 1.419e-6
-0.061, 1.426e-6
-0.063, 1.430e-6
-0.065, 1.433e-6
-0.067, 1.439e-6
-0.069, 1.445e-6
-0.071, 1.449e-6
-0.073, 1.454e-6
-0.075, 1.459e-6
-0.077, 1.465e-6
-0.079, 1.469e-6
-0.081, 1.475e-6
-0.083, 1.481e-6
-0.085, 1.486e-6
-0.087, 1.492e-6
-0.089, 1.498e-6
-0.091, 1.503e-6
-0.093, 1.508e-6
-0.095, 1.515e-6
-0.097, 1.521e-6
-0.099, 1.527e-6
-0.101, 1.533e-6
-0.103, 1.539e-6
-0.105, 1.546e-6
-0.107, 1.551e-6
-0.109, 1.558e-6
-0.111, 1.565e-6
-0.113, 1.571e-6
-0.115, 1.577e-6
-0.117, 1.583e-6
-0.119, 1.592e-6
-0.121, 1.599e-6
-0.123, 1.606e-6
-0.125, 1.614e-6
-0.127, 1.621e-6
-0.129, 1.629e-6
-0.131, 1.638e-6
-0.133, 1.646e-6
-0.135, 1.655e-6
-0.137, 1.662e-6
-0.139, 1.671e-6
-0.141, 1.678e-6
-0.143, 1.688e-6
-0.145, 1.697e-6
-0.147, 1.705e-6
-0.149, 1.714e-6
-0.151, 1.724e-6
-0.153, 1.734e-6
-0.155, 1.743e-6
-0.157, 1.754e-6
-0.159, 1.765e-6
-0.161, 1.777e-6
-0.163, 1.786e-6
-0.165, 1.799e-6
-0.167, 1.809e-6
-0.169, 1.822e-6
-0.171, 1.833e-6
-0.173, 1.846e-6
-0.175, 1.859e-6
-0.177, 1.872e-6
-0.179, 1.886e-6
-0.181, 1.899e-6
-0.183, 1.913e-6
-0.185, 1.929e-6
-0.187, 1.943e-6
-0.189, 1.958e-6
-0.191, 1.974e-6
-0.193, 1.990e-6
-0.195, 2.006e-6
-0.197, 2.023e-6
-0.199, 2.041e-6
